%time,field.force.x,field.force.y,field.force.z,field.torque.x,field.torque.y,field.torque.z
1718270149362275521,0.2567568069999686,1.375879560999978,11.354643758999991,0.7565584369999999,0.4388815340000032,-0.042431693
1718270149363494619,0.2796868069999686,1.404283560999978,11.34389675899999,0.7483014369999998,0.4448065340000031,-0.0429806929999999
1718270149364704752,0.3023288069999682,1.422636560999978,11.340942758999992,0.7414624369999997,0.4498535340000031,-0.0436586929999999
1718270149365928215,0.3121088069999691,1.438535590999978,11.346627758999992,0.7348324369999998,0.4534175340000032,-0.043678693
1718270149367173949,0.3129988069999683,1.4493565909999784,11.361727758999994,0.7294714369999997,0.4543085340000031,-0.0427756929999999
1718270149367220645,0.3178708069999683,1.4675545909999783,11.354901758999992,0.7246234369999996,0.4521065340000031,-0.041494693
1718270149368362213,0.3267528069999691,1.4733765909999783,11.348592758999994,0.7207184369999997,0.4487295340000031,-0.0400826929999999
1718270149369601129,0.3312408069999689,1.4668225909999784,11.35026575899999,0.7175494369999998,0.4449105340000031,-0.0385356929999999
1718270149370810355,0.3438798069999685,1.4697965909999782,11.368417758999993,0.7155794369999998,0.4403375340000031,-0.0364526929999999
1718270149372091243,0.3523188069999684,1.4655855909999782,11.379429758999994,0.7130874369999997,0.4348185340000031,-0.033979693
1718270149372103951,0.3649578069999687,1.468760590999978,11.406849158999991,0.7102364369999997,0.4289835340000031,-0.030712693
1718270149373245603,0.3860228069999687,1.4817925909999785,11.433886158999991,0.7072714369999998,0.4218975340000031,-0.0277216929999999
1718270149374464723,0.4026058069999686,1.492096590999978,11.476246158999992,0.7056014369999997,0.4146085340000031,-0.0248546929999999
1718270149375670915,0.4189648069999684,1.482590590999978,11.50464015899999,0.7052254369999998,0.4072135340000031,-0.0214496929999999
1718270149376885994,0.4518708069999688,1.477511590999978,11.526658158999991,0.7070684369999998,0.4000985340000031,-0.0177636929999999
1718270149378129297,0.4764198069999684,1.457822590999978,11.548482158999994,0.7085304369999998,0.3934875340000031,-0.0140766929999999
1718270149378138640,0.4968518069999686,1.445523590999978,11.585297158999992,0.7094324369999997,0.3878025340000031,-0.0103846929999999
1718270149379392187,0.5043548069999688,1.435343590999978,11.614469158999992,0.7119184369999997,0.3823915340000031,-0.0069446929999999
1718270149380605265,0.5073438069999691,1.4076275909999778,11.636370158999991,0.7163974369999998,0.3775515340000031,-0.0036216929999999
1718270149381842765,0.5142168069999689,1.3770955909999782,11.635309158999991,0.7230284369999999,0.3718985340000031,-0.0008246929999999
1718270149383117124,0.5083598069999684,1.363681590999978,11.634391158999993,0.7296664369999999,0.3660015340000031,0.002106307
1718270149383143362,0.4945198069999688,1.350706590999978,11.661139158999992,0.7339194369999997,0.3608495340000031,0.003832307
1718270149385275632,0.4684648069999687,1.3553215909999778,11.672123208999992,0.7357664369999999,0.3568515340000031,0.005683307
1718270149385286952,0.4423488069999688,1.3695455909999783,11.704987158999993,0.7381764369999999,0.3535965340000031,0.006882307
1718270149386448238,0.4204428069999687,1.3665385909999783,11.730825158999991,0.7410274369999997,0.3511915340000031,0.008352307
1718270149387663212,0.3945378069999685,1.3610729909999784,11.738641158999991,0.7438624369999999,0.3506155340000031,0.008104307
1718270149388866464,0.3606198069999689,1.3560069909999783,11.752691158999992,0.7445224369999999,0.3511615340000031,0.007452307
1718270149390330826,0.322807806999969,1.358543990999978,11.795309158999991,0.7435344419999999,0.3527675340000031,0.006001307
1718270149391267052,0.2977588069999682,1.378350990999978,11.815336758999992,0.7420684419999998,0.3538195340000031,0.004673307
1718270149391276461,0.276974806999969,1.395585990999978,11.82583775899999,0.7412274419999997,0.3557065340000031,0.002023307
1718270149392653484,0.2817478069999689,1.4029569909999784,11.821118758999994,0.7404434419999997,0.3601975340000031,-0.0007446929999999
1718270149396543331,0.2782808069999686,1.430053990999978,11.823417758999993,0.7385964369999997,0.3657815340000031,-0.0036426929999999
1718270149396551687,0.2667398069999683,1.4529099909999783,11.862910758999991,0.7336424369999998,0.3697205340000031,-0.0064366929999999
1718270149397791762,0.2554198069999682,1.4712499909999783,11.863026758999991,0.7275324369999998,0.3720335340000031,-0.0099206929999999
1718270149397804325,0.2353858069999688,1.474590990999978,11.893199758999993,0.7228014369999998,0.3743385340000031,-0.0137906929999999
1718270149397819270,0.2193278069999685,1.460378990999978,11.90734675899999,0.7202694369999998,0.3772385340000032,-0.018576693
1718270149398954144,0.1818838069999689,1.4288249909999782,11.922089758999991,0.7188804369999998,0.3796575340000031,-0.0230906929999999
1718270149400257672,0.1401508069999686,1.409650990999978,11.92198175899999,0.7172044369999999,0.3800945340000031,-0.0273546929999999
1718270149400302971,0.0901848069999686,1.4007229909999783,11.936621758999992,0.7134724369999997,0.3788645340000031,-0.0315086929999999
1718270149401454618,0.0615468069999688,1.3798109909999785,11.967067758999992,0.7084604369999997,0.3775205340000031,-0.035141693
1718270149402733090,0.0073228069999684,1.3734019909999782,11.990655758999992,0.7043234369999997,0.3758335340000031,-0.0383696929999999
1718270149403946665,-0.0344631930000313,1.359391990999978,12.00020875899999,0.7016054369999998,0.3738675340000031,-0.0411926929999999
1718270149405169594,-0.0809291930000317,1.332818990999978,12.004817758999993,0.7007124369999997,0.3705705340000031,-0.0426826929999999
1718270149405184802,-0.1235191930000314,1.3132399909999783,11.995471758999992,0.7016494369999997,0.3666985340000031,-0.0437666929999999
1718270149406408495,-0.1748781930000312,1.2983575909999785,11.979900758999992,0.7037514369999998,0.3615305340000031,-0.0441836929999999
1718270149407636400,-0.2179331930000312,1.278626590999978,11.965296758999994,0.7059964369999998,0.3543695340000031,-0.0440846929999999
1718270149408834979,-0.2697541930000315,1.263571590999978,11.952060758999991,0.7094074369999999,0.3461645340000032,-0.043317693
1718270149410139241,-0.3217391930000309,1.2483355909999785,11.925182758999991,0.7136884369999998,0.3382055340000032,-0.0417456929999999
1718270149410149780,-0.3823191930000312,1.223179590999978,11.920962758999991,0.7185284369999999,0.3299825340000031,-0.0403026929999999
1718270149411374907,-0.4602301930000313,1.2075705909999783,11.91792975899999,0.7248254369999998,0.3196745340000031,-0.038329693
1718270149412587919,-0.5300541930000309,1.1672265909999782,11.908911758999992,0.7327834369999998,0.3078995340000031,-0.035692693
1718270149413815602,-0.5960921930000311,1.143672590999978,11.893155758999992,0.7426904369999997,0.2942735340000031,-0.032922693
1718270149415027272,-0.6536881930000318,1.115241990999978,11.878291758999993,0.7525224369999999,0.2805505340000031,-0.029622693
1718270149416283591,-0.7069241930000312,1.0943129909999778,11.863232758999994,0.7615594369999998,0.2667695340000031,-0.0263266929999999
1718270149416298097,-0.751936193000031,1.0829069909999782,11.865222758999993,0.7715724419999999,0.2533675340000031,-0.0220906929999999
1718270149417479583,-0.7886141930000312,1.0615539909999785,11.860960758999992,0.7823264419999998,0.2403755340000031,-0.0171826929999999
1718270149418704166,-0.8169331930000316,1.035212990999978,11.856503758999994,0.7936654369999998,0.2269065340000031,-0.0125416929999999
1718270149419931480,-0.8494501930000313,1.0213079909999785,11.83770675899999,0.8042784369999998,0.2122115340000031,-0.0072476929999999
1718270149421187854,-0.8691071930000309,1.000288990999978,11.83446475899999,0.8136864369999998,0.1975015340000031,-0.0015646929999999
1718270149421198814,-0.8798441930000311,0.9991999909999782,11.824126758999991,0.8208994269999997,0.1850665340000031,0.004784307
1718270149422352867,-0.8777031930000316,0.995682990999978,11.814149758999992,0.8276224269999998,0.1747525340000031,0.011410307
1718270149423877307,-0.8713641930000318,0.999527990999978,11.828172758999992,0.8339884269999999,0.1643735340000031,0.018834307
1718270149425140051,-0.8733581930000316,0.998698990999978,11.802952758999991,0.8398674269999999,0.1528495340000031,0.025577307
1718270149425152482,-0.8794951930000314,1.005275990999978,11.785775758999993,0.8451854269999999,0.1420005340000031,0.032722307
1718270149426361271,-0.8725781930000316,0.999888990999978,11.76780175899999,0.8490214369999999,0.1325315340000031,0.039599307
1718270149427595754,-0.882307193000031,1.0191839909999785,11.771009758999991,0.8514324369999999,0.1240035340000031,0.045812307
1718270149428807536,-0.8876161930000314,1.016701990999978,11.749949758999993,0.8531354369999998,0.1147005340000031,0.051213307
1718270149430054535,-0.9056111930000316,1.006842990999978,11.70547475899999,0.8552074369999999,0.1055645340000031,0.056216307
1718270149431218041,-0.9152681930000316,1.001692990999978,11.669296758999993,0.857981437,0.0969435340000031,0.061495307
1718270149431227570,-0.9286411930000312,0.979694990999978,11.631037758999994,0.8590284369999999,0.0910585340000031,0.065848307
1718270149432443038,-0.9160041930000314,0.9776749909999782,11.60465375899999,0.857647437,0.0876245340000031,0.068472307
1718270149433657971,-0.9027111930000312,0.9761219909999782,11.559783758999991,0.8538604369999998,0.0863525340000031,0.069496307
1718270149435381695,-0.8847941930000316,0.986939990999978,11.54340475899999,0.848688437,0.0879205340000031,0.069601307
1718270149435392373,-0.8453671930000312,0.980796990999978,11.510196758999992,0.8426194369999997,0.0914045340000031,0.068778307
1718270149436460594,-0.8099551930000316,0.9870119909999782,11.475254758999991,0.8358324369999999,0.0956855340000031,0.067025307
1718270149437703033,-0.774264193000031,0.9983169909999782,11.44545675899999,0.8280164369999998,0.1005995340000031,0.063940307
1718270149438906103,-0.7468631930000312,1.0195299909999782,11.406143758999992,0.8196774369999997,0.1057355340000031,0.059790307
1718270149440121810,-0.7149091930000318,1.048283990999978,11.379755758999991,0.8101124369999999,0.1120795340000031,0.054442307
1718270149440139209,-0.6912771930000312,1.0771409909999785,11.337347758999991,0.8001234419999999,0.1187845340000031,0.048695307
1718270149441292888,-0.6803221930000315,1.1084809909999782,11.308917158999993,0.7899714369999998,0.1250125340000031,0.042280307
1718270149442518553,-0.6820051930000317,1.137491990999978,11.280045158999991,0.7793744369999998,0.1306445340000031,0.035727307
1718270149443746465,-0.6836301930000315,1.166534990999978,11.251107158999991,0.7685574369999999,0.1366565340000031,0.029173307
1718270149446160786,-0.6851631930000317,1.1957169909999783,11.245329158999994,0.7568664369999998,0.1426685340000031,0.023016307
1718270149446173639,-0.6865601930000311,1.224998990999978,11.246947158999994,0.7445184369999999,0.1493155340000031,0.016859307
1718270149446191229,-0.683836193000031,1.261489990999978,11.242449208999991,0.7326844369999997,0.1564015340000031,0.011507307
1718270149447415182,-0.6770571930000312,1.2904415909999782,11.231320158999992,0.7218494369999999,0.1635655340000031,0.006560307
1718270149449203244,-0.6577971930000311,1.316745590999978,11.229835158999991,0.7118344369999998,0.1708235340000031,0.002683307
1718270149449215969,-0.6405991930000311,1.3463185909999782,11.214443158999991,0.7106214369999998,0.1719705340000031,0.002682307
1718270149450467214,-0.6429801930000317,1.3501885909999782,11.23621015899999,0.7027924369999997,0.1776135340000031,-0.0011886929999999
1718270149451719913,-0.5810481930000316,1.4159975909999782,11.22774515899999,0.6907624269999998,0.1859475340000031,-0.0045416929999999
1718270149452916068,-0.6007271930000316,1.405002590999978,11.230801158999991,0.6840854269999997,0.1902935340000031,-0.0060196929999999
1718270149454120172,-0.5614841930000315,1.442618590999978,11.230739158999992,0.6785404269999998,0.1954765340000031,-0.0052246929999999
1718270149454153083,-0.5225731930000312,1.4848505909999783,11.202499758999991,0.6745794269999997,0.2000145340000031,-0.0033606929999999
1718270149455351049,-0.4839481930000313,1.522058990999978,11.190551758999993,0.6714354269999997,0.2027865340000031,-0.0009696929999999
1718270149456595839,-0.4453901930000314,1.554431990999978,11.17184875899999,0.6682294269999999,0.2045545340000031,0.001945307
1718270149457787866,-0.4196901930000314,1.564383990999978,11.156120758999991,0.6672064269999999,0.2063815340000031,0.001682307
1718270149459243021,-0.3769941930000311,1.6384159909999785,11.159228758999992,0.6629404269999998,0.2089185340000031,0.008857307
1718270149459255682,-0.3556361930000311,1.670476990999978,11.165439758999993,0.6608564269999998,0.2112635340000031,0.012985307
1718270149460374479,-0.3303951930000313,1.714419990999978,11.148051758999994,0.6608854269999999,0.2124005340000031,0.016187307
1718270149461583191,-0.3303951930000313,1.714419990999978,11.148051758999994,0.6608854269999999,0.2124005340000031,0.016187307
1718270149462800051,-0.3052141930000314,1.7633949909999782,11.138588758999994,0.6605344269999999,0.2115125340000031,0.019638307
1718270149464033733,-0.2759821930000312,1.8049559909999784,11.143865758999992,0.6607494269999997,0.2091915340000031,0.022684307
1718270149465322716,-0.2475451930000316,1.875118990999978,11.122529758999992,0.6648104269999999,0.2058035340000031,0.027347307
1718270149465335208,-0.2430651930000316,1.892503990999978,11.121754758999993,0.6634754269999998,0.2061135340000031,0.027074307
1718270149466566121,-0.2351571930000313,1.9017829909999784,11.117128758999993,0.6659814269999998,0.2053525340000031,0.028417307
1718270149467758250,-0.2317631930000314,1.9231809909999784,11.118900758999992,0.6695234269999999,0.2018485340000031,0.028817307
1718270149468972749,-0.228364193000031,1.9299729909999777,11.134507758999993,0.6728954269999998,0.1973565340000031,0.028412307
1718270149485058724,-0.2202541930000312,1.944401990999978,11.140127758999991,0.6745984269999998,0.1948325340000031,0.026810307
1718270149485071129,-0.2075181930000318,1.9663539909999777,11.182598758999992,0.6746384269999998,0.1950285340000031,0.024820307
1718270149486949192,-0.1903261930000317,1.990973990999978,11.209811158999992,0.6736014269999997,0.1958065340000031,0.022958307
1718270149486970159,-0.1603351930000311,2.018181990999978,11.230190158999994,0.6719124269999999,0.1965535340000031,0.021622307
1718270149486978159,-0.1301961930000312,2.0454819909999777,11.28067715899999,0.6693504269999997,0.1983115340000031,0.020289307
1718270149487007349,-0.0998651930000313,2.067927990999978,11.323620158999992,0.6662894269999998,0.2020965340000031,0.019100307
1718270149487018355,-0.0780481930000311,2.070672990999978,11.375053203999991,0.6636644269999998,0.2066395340000031,0.018451307
1718270149487029387,-0.0565841930000312,2.073220990999978,11.40603315899999,0.6623454269999998,0.2096595340000031,0.018996307
1718270149487045823,-0.0350771930000315,2.0660869909999784,11.438552158999991,0.6604654269999999,0.2126925340000031,0.020601307
1718270149487068969,-0.0216851930000314,2.044579990999978,11.471123158999994,0.6568874269999998,0.2169905340000031,0.022602307
1718270149487084458,-0.0038751930000315,2.030433990999978,11.51114375899999,0.6527354269999999,0.2233745340000031,0.024614307
1718270149487109001,0.0012788069999685,2.013944990999978,11.535603758999992,0.6483544269999997,0.2290365340000031,0.026486307
1718270149487137251,0.0192358069999682,2.004883990999978,11.567582758999992,0.6433834269999997,0.2351655340000031,0.028358307
1718270149487151098,0.0419258069999683,2.013316990999978,11.59156375899999,0.6361994269999999,0.2436255340000031,0.030364307
1718270149487168148,0.0778068069999688,2.029513990999978,11.644607758999992,0.6264574269999998,0.2536985340000031,0.031966307
1718270149487193319,0.0885148069999681,2.050836990999978,11.702627758999991,0.6157294269999998,0.2632015340000031,0.032231307
1718270149487204485,0.0860158069999688,2.0644499909999783,11.737256758999992,0.6075654269999998,0.2698335340000031,0.031692307
1718270149487237039,0.0659008069999682,2.043082990999978,11.764251758999992,0.6034034269999997,0.2749355340000031,0.030504307
1718270149489332284,0.0409778069999691,1.998966990999978,11.767643758999991,0.6031484269999998,0.2797295340000031,0.028141307
1718270149490737635,-0.0010381930000316,1.9449445909999776,11.769063758999993,0.6039074269999999,0.2828505340000031,0.024442307
1718270149490802624,-0.0557431930000313,1.898531590999978,11.783444758999993,0.6039074269999999,0.2828425340000031,0.019521307
1718270149490843374,-0.1101701930000309,1.857230590999978,11.795378758999991,0.6028774269999998,0.2832135340000031,0.013266307
1718270149492031822,-0.1390351930000317,1.820911590999978,11.844354758999993,0.6009944269999997,0.2845335340000031,0.006481307
1718270149493296631,-0.1721881930000317,1.781932560999978,11.88573575899999,0.5999654269999998,0.2871665340000031,-0.0004236929999999
1718270149493303994,-0.184445193000031,1.7549735909999782,11.934389758999991,0.6001454269999998,0.2886365340000031,-0.0078606929999999
1718270149494340831,-0.1882931930000309,1.718083590999978,11.974861758999992,0.6010724269999997,0.2905195340000031,-0.0158226929999999
1718270149498931986,-0.1963141930000311,1.688554590999978,12.030393758999992,0.6016584269999997,0.2929485340000031,-0.0237826929999999
1718270149500458644,-0.2044641930000312,1.654099990999978,12.079301758999993,0.6026194269999997,0.2943735340000031,-0.0312146929999999
1718270149500494974,-0.2258351930000315,1.626899990999978,12.129793758999991,0.6047844369999998,0.2910155340000031,-0.037872693
1718270149500508750,-0.2774541930000309,1.582219990999978,12.159732758999992,0.6094144369999999,0.2842465340000031,-0.0434716929999999
1718270149500523014,-0.338328193000031,1.527144990999978,12.201149758999993,0.6172194369999998,0.2751775340000031,-0.0472016929999999
1718270149500532588,-0.4039401930000317,1.4641119909999782,12.199202758999991,0.6282214369999999,0.2665355340000031,-0.0501126929999999
1718270149501448693,-0.4654961930000312,1.4034859909999782,12.192558758999994,0.6394534369999998,0.2572015340000031,-0.0512976929999999
1718270149502262845,-0.5313141930000314,1.350408990999978,12.194547758999992,0.6499034369999998,0.2458925340000031,-0.0517006929999999
1718270149503633843,-0.5929221930000312,1.319663990999978,12.200658758999992,0.6588444369999997,0.2329855340000031,-0.0493306929999999
1718270149504810245,-0.6422971930000316,1.281083990999978,12.195562758999994,0.6700744419999998,0.2205505340000031,-0.044948693
1718270149505707213,-0.679268193000031,1.2396759909999784,12.186397758999991,0.6827764369999997,0.2095915340000031,-0.038683693
1718270149506994399,-0.682427193000031,1.202857990999978,12.163045758999992,0.6965724369999997,0.2011065340000031,-0.032132693
1718270149508298648,-0.6980861930000317,1.1736169909999783,12.13415675899999,0.7089344369999999,0.1936545340000031,-0.0239846929999999
1718270149508314631,-0.7012581930000314,1.146859990999978,12.13846975899999,0.7210834369999998,0.1843975340000031,-0.0141216929999999
1718270149509497195,-0.7087671930000312,1.122595990999978,12.12908475899999,0.7332604369999998,0.1739265340000031,-0.0033346929999999
1718270149510784883,-0.7079011930000316,1.098073990999978,12.089127758999991,0.7467374269999998,0.1646085340000031,0.007066307
1718270149511991959,-0.7072351930000313,1.0584309909999785,12.058487758999991,0.7617854269999998,0.1578255340000031,0.018294307
1718270149513245842,-0.7066521930000311,1.0184849909999785,12.028162758999992,0.7779294269999998,0.1529295340000031,0.029543307
1718270149513262463,-0.710290193000031,0.9910449909999782,11.991030758999994,0.7931274269999999,0.1459285340000031,0.041436307
1718270149514476528,-0.7222991930000315,0.968649990999978,11.950954758999991,0.8079694269999999,0.1375155340000031,0.051588307
