%time,field.linear.x,field.linear.y,field.linear.z,field.angular.x,field.angular.y,field.angular.z
1718277695131001666,0.0002794783869575,-0.0005270129108487,0.0014755718559852,-0.1701908096292431,0.2339593543896024,-0.0785659335633013
1718277695132243165,0.0003231080964991,-0.000286169333676,0.0027012943700031,-0.1688461807363334,0.2358064339242442,-0.0758806355008775
1718277695132255251,0.0003859072658989,-4.388929174786711e-05,0.003607627250868,-0.1678460509895717,0.2379239809037151,-0.0730467727214009
1718277695133466108,0.0005320446886869,0.000102271210406,0.0043029905260312,-0.1669507184874745,0.2401252341604617,-0.0706412733154
1718277695135325791,0.0006732238432248,5.106888027545099e-05,0.0050564077793059,-0.1656631646648838,0.2422535247075684,-0.0682455817097121
1718277695136626528,0.0008408095773116,0.0002995604564561,0.0055837645727555,-0.1654619741174551,0.2441961865677996,-0.0663956490309662
1718277695136638588,0.000821007103349,0.0008271819103717,0.0056661515617364,-0.1665092185521604,0.246049090051796,-0.0636217083692448
1718277695138060153,0.0009765587208423,0.001244655202187,0.0060140521746582,-0.1667995377607904,0.2477636213777107,-0.0616177577002688
1718277695139313840,0.0012506380933096,0.0015511669010179,0.0062234243248392,-0.1672217688212045,0.249918276832551,-0.0599090398200989
1718277695139330173,0.0014449843050989,0.0017692823890247,0.0062429148052133,-0.1674740696336318,0.2522570426347523,-0.0583853989389358
1718277695140576483,0.0015143402229455,0.002065718039786,0.0061357745326118,-0.1684715907899281,0.2540244451433837,-0.0568431037030701
1718277695141835571,0.0015304878690792,0.0024325201006433,0.006377833213987,-0.169064587427617,0.2558637426590861,-0.0561663156434975
1718277695143071731,0.0016744751011934,0.0026317719974469,0.0064826099188365,-0.1696005508732296,0.2576744940059416,-0.0554809204537892
1718277695144301955,0.0019699674424983,0.0026114826189318,0.0063972706278057,-0.1702387584976851,0.2594979836957831,-0.0551331862219061
1718277695144314527,0.0026083749729923,0.0026264435511262,0.0064543480587896,-0.1708123092833801,0.2613063188265798,-0.0560855778603524
1718277695145496357,0.0031382953161598,0.0025771239679754,0.0066077793428193,-0.1713335604575035,0.2630649405746098,-0.0568841572637349
1718277695148693665,0.0035816230511805,0.0029587686879236,0.0062838080640881,-0.1733729206451075,0.264565192270343,-0.0578442057202754
1718277695149689732,0.004195825389613,0.003107528565247,0.0060196726421307,-0.1749798436867867,0.2663952957675103,-0.0573877180730646
1718277695149704089,0.0047898139162395,0.0033283681475502,0.005349703209667,-0.1774028605107162,0.26801779173037,-0.0576549346540543
1718277695150866329,0.0052310625918279,0.0035528714331293,0.0049502108924038,-0.1792771963881228,0.2700096593523208,-0.0576540877614699
1718277695162182801,0.0054084092931448,0.0038398271705853,0.0043284866702797,-0.1816886786637726,0.2716607763280502,-0.056855717009179
1718277695163883756,0.005616051981781,0.0041626184797969,0.0038323633747935,-0.1839778377467882,0.2733559435058723,-0.0555456745766066
1718277695163900566,0.0058802291693274,0.0046435313241847,0.0031059174983595,-0.1871358442019804,0.2751413981256134,-0.0544821639432851
1718277695163918931,0.0062437502430264,0.0050307095361852,0.0023480224902971,-0.1902261979891981,0.2765037645878524,-0.0537742026584189
1718277695163934070,0.0063327595010662,0.005610411113819,0.0015365166770593,-0.1937143954599514,0.2774126814816439,-0.0523039450919713
1718277695163947480,0.006086773570993,0.0059287196778539,0.000939278414846,-0.1964486678276756,0.2779977503120602,-0.0502837457609778
1718277695163960418,0.0058379211377603,0.0061663142343568,0.0003100373953259,-0.1989732095503721,0.2788384877852465,-0.0487986400929042
1718277695163977258,0.005848735876539,0.0061941051440653,-0.0001090178713864,-0.200814244273711,0.2793778317130051,-0.047732209317919
1718277695163995039,0.0059018525389596,0.0065382599309283,-0.0001852414449132,-0.2027101896981909,0.2797231033217758,-0.0463862262580892
1718277695164009935,0.0059575902969382,0.0068666834899727,-0.0002709783154138,-0.2045502964340076,0.2800396342874995,-0.0449343141609801
1718277695164023395,0.0061348240259755,0.0072887181687179,-0.000681422587881,-0.2069370280532957,0.2802152392205512,-0.0438979257650906
1718277695164048655,0.0061669650233603,0.0076212588590531,-0.0012007039977278,-0.2092624751809605,0.2802099783167204,-0.0430177455737945
1718277695165595327,0.0062540343665746,0.0077119153619939,-0.0012804268846471,-0.2103648443368615,0.279694408909555,-0.0426067180825197
1718277695165610685,0.0061234756906923,0.0081439538605308,-0.0013166666276359,-0.2117347876697981,0.2789077808168264,-0.0415521027070457
1718277695166862423,0.0061233340267181,0.0087887854874928,-0.0015384384079803,-0.2137237200489282,0.278519819911264,-0.0406178722719288
1718277695166875401,0.0061205197597448,0.0091407481432611,-0.0018132924029945,-0.2149886713538331,0.2784600328973469,-0.0399544652330142
1718277695168062167,0.006216137893985,0.0092390781471228,-0.0018497710632806,-0.2154587550916381,0.2784767930931929,-0.0396860643869445
1718277695169345404,0.0063325460016434,0.0095489181915579,-0.0018692413885694,-0.2161207356019642,0.2779401005203308,-0.0396702871809272
1718277695169353718,0.0061398779649374,0.0097952191658365,-0.0019219946914162,-0.2167550193746402,0.2766164505187977,-0.0392201635818468
1718277695170569559,0.0060654231499678,0.0100106766634484,-0.0020101077366588,-0.2174079281295891,0.27559375010359,-0.0393983498207951
1718277695171675840,0.0057587589079689,0.0102997687556349,-0.0026045536463169,-0.2191000143339908,0.2744894114830075,-0.0392927994673061
1718277695172891490,0.0054357268153372,0.0107842949317447,-0.0028675553372499,-0.2204963378704143,0.2739895515823931,-0.0386579592247789
1718277695174087880,0.005178074436865,0.011163726225957,-0.0027798404212768,-0.2208548090030302,0.2732684038626539,-0.0380709992374952
1718277695175356211,0.0050631078914051,0.01138800550717,-0.002943850002582,-0.2211808516084652,0.2721894487170535,-0.0375745889641727
1718277695175364289,0.0049138863594589,0.0119052746988885,-0.0032482523826945,-0.2220946593951589,0.2711909600376265,-0.0375404848921296
1718277695176439385,0.0051474208733462,0.0121965461699544,-0.0031000403618926,-0.222192790184304,0.2707812407387844,-0.0381477295918691
1718277695177645404,0.0051038275955117,0.0125555046616185,-0.0026941169087946,-0.2217963600207712,0.2700274498323696,-0.0382109729488381
1718277695178875726,0.0048516015143114,0.0127711127188865,-0.0021582583826592,-0.2205941360422736,0.2685894242429986,-0.0382484728997341
1718277695180098944,0.0045103797062402,0.0128429690281131,-0.0016956063104441,-0.2193478157620444,0.2672604456603158,-0.038318143628143
1718277695181359178,0.0039457792855886,0.0128882261921643,-0.0012711232468177,-0.2181530117845894,0.2655738424142461,-0.0382616327177309
1718277695181371154,0.0037156858765099,0.0129917399579194,-0.0009259913018769,-0.2175089485106967,0.2641409643606781,-0.03828595392415
1718277695183155088,0.0035125619855144,0.0130187293147254,-0.0006214505238465,-0.2168243293114752,0.2630294539357407,-0.0381672499783831
1718277695184339487,0.0033179836571984,0.0130105176223016,-4.6888230242663614e-05,-0.2154108189055975,0.2615460019559822,-0.037451129534046
1718277695184347381,0.0028719488170429,0.0131409016981597,0.0006312895313409,-0.2142289585533267,0.2598717701697899,-0.0364479182070942
1718277695185441884,0.0024987582364758,0.0133052963696457,0.0011136130192985,-0.2134523188525573,0.2586953972169866,-0.0355088646489196
1718277695186683822,0.0019375241542066,0.0134491492144291,0.0014215554316989,-0.2129210189915762,0.2575760398796589,-0.0343110283327922
1718277695188884320,0.0011114628945463,0.0133491204135213,0.0016630759162298,-0.2120479276195688,0.2564296817847586,-0.0328457856452351
1718277695190109330,0.0004555397231987,0.0132417533333831,0.0017324435447527,-0.2115940265723276,0.2552813710423404,-0.0324283191243444
1718277695190116348,-9.479036754226792e-05,0.0130584002033491,0.0017527981181647,-0.2111065099574311,0.2541494463620999,-0.0315699777894551
1718277695191398916,-0.0005436769514525,0.0127790174882569,0.0016922946612626,-0.2107625922883849,0.2531653587863711,-0.030803189405402
1718277695191406383,-0.0010937106070749,0.0124517492023983,0.0015494176950622,-0.2103022661117286,0.2523158190434983,-0.0292883982213457
1718277695192525957,-0.0012806564911806,0.0122129204412368,0.0015915814223615,-0.2098530911146671,0.251466062067577,-0.0290215904094035
1718277695193709739,-0.0018856377385177,0.011762750525834,0.0018105905611709,-0.2087690223166968,0.2507763774237566,-0.0281372038673294
1718277695195007928,-0.0023562502548054,0.0113227569174443,0.0022653113494788,-0.2074660452693177,0.2500618707270793,-0.0271456120234273
1718277695196202426,-0.0027224299298896,0.0110518872139347,0.0022664581163819,-0.207424095496407,0.2492673297334713,-0.0263822338808765
1718277695197453256,-0.003215913453761,0.0106759776761038,0.0023062540591715,-0.2069673045781828,0.2486262390360162,-0.0257359020591395
1718277695197470954,-0.0038972176734157,0.010051809718323,0.0024166879747089,-0.2057718577230498,0.2480911645268386,-0.0246123407433779
1718277695198695247,-0.0044415233817536,0.0093094758847419,0.0023446389824516,-0.2045653217583704,0.2481189994279853,-0.0228659411973567
1718277695199851465,-0.0048280285410071,0.0087099130222052,0.0021061424143661,-0.2040125120870855,0.2483538139843736,-0.0216787983416811
1718277695201030913,-0.0050415286330182,0.0080221201719512,0.0020216184085159,-0.2026245933436972,0.2487413962538562,-0.0204686180562238
1718277695202319709,-0.0052127988132005,0.0073449929532641,0.0019077356068597,-0.2009657364754694,0.248850424806185,-0.0195823043130678
1718277695203561338,-0.0051807205121188,0.0067690446114392,0.0018744951393829,-0.1996734902564507,0.2492168321849645,-0.0196069272092652
1718277695203606534,-0.0052140322858884,0.0062710703059448,0.0016027727336657,-0.1989861201819922,0.2503081222841741,-0.0196348907106554
1718277695204733001,-0.0051751927363065,0.0057234326335289,0.0010579304792723,-0.1986054868168558,0.2511722052496938,-0.0202553112218904
1718277695205947938,-0.0050789345917637,0.0049220610056939,0.0004019271854929,-0.1982075236034188,0.2519120726668503,-0.0216064772561818
1718277695207213140,-0.0047029659739322,0.0041442137839594,0.0001330340912053,-0.1971505327019157,0.2526329876970044,-0.0237486299534885
1718277695207246350,-0.0043090357389713,0.0034966786060301,-0.0001783634979717,-0.1962092394074952,0.2533006342899479,-0.0257211359675682
1718277695208457213,-0.0042293616093245,0.0029205451686746,-0.0005926181587568,-0.1958348848839897,0.2539900506390282,-0.0268971590502217
1718277695209657723,-0.0042980644974442,0.0022624528222936,-0.0007060816394119,-0.1946181789709622,0.2540875920786647,-0.0274688112029335
1718277695210876220,-0.0047648882476616,0.0018549073465113,-0.0009863771742438,-0.1941178692699567,0.253665616984048,-0.0276246160029461
1718277695212079208,-0.0048935806119566,0.0014680364452407,-0.0013343109796429,-0.1935258531326059,0.2535139948114167,-0.0288960474088741
1718277695213925978,-0.0048089465918546,0.0011863485666948,-0.0013552036445384,-0.1926235687201909,0.2541916279877918,-0.0302893065084268
1718277695213981541,-0.0047965236300407,0.0009003424826467,-0.0015123028854167,-0.1919695603819885,0.2547931647492279,-0.0320634395272092
1718277695218558446,-0.0046237924246991,0.0007297031517353,-0.0018091630141037,-0.1916281084744153,0.2557504548630088,-0.0338688820795967
1718277695219916654,-0.0045465965251399,0.0006420512154682,-0.0021129566197554,-0.1914666647934685,0.2564467913302295,-0.036246127700128
1718277695219935856,-0.0044468130639344,0.000746570249622,-0.0026356917831704,-0.1921004494530093,0.2573391515614161,-0.0378962909603459
1718277695219952102,-0.0041793743010609,0.0009254173181478,-0.0032486985392661,-0.1930847198295415,0.2585726098460424,-0.0397612069645759
1718277695219959630,-0.0041737685545447,0.001260476728729,-0.0037295534998513,-0.194268899095253,0.2594385132571857,-0.0408953142415026
1718277695219998712,-0.0044733890796266,0.0015357561658675,-0.0041674396783628,-0.195171639641441,0.2595973482738482,-0.0418093129154268
1718277695221068751,-0.0045176970685723,0.0016081903746078,-0.0042982643850762,-0.1950016304790921,0.2596664186117871,-0.0429400082014667
1718277695222195785,-0.0044319195316788,0.0017798960001443,-0.0044626455940341,-0.1951200818427611,0.2597001156145538,-0.0441354581776756
1718277695223424765,-0.0044047551238946,0.0017357169322535,-0.0045389141905288,-0.1947967722927328,0.2598100759788903,-0.0447519349942205
1718277695223455096,-0.0044996162705914,0.0018001924929266,-0.0043674182598974,-0.1942559035236771,0.2593528668435529,-0.0448463625003885
1718277695224642552,-0.0048232602586059,0.0020747450014472,-0.0042840138656467,-0.1941227637742604,0.2585657978112826,-0.0453211246149888
1718277695225853061,-0.0051145471719771,0.0022796283154789,-0.0043791626512621,-0.1941231975878674,0.25759066305377,-0.0459647992595106
1718277695227071617,-0.0053922863488575,0.0023732125561793,-0.0042955266615584,-0.1938008150402239,0.2564389910999812,-0.0468132637861042
1718277695228690246,-0.0058368668982836,0.002263624920525,-0.0040941429925011,-0.1926810657867317,0.2550890173323034,-0.0475254426994444
1718277695228711578,-0.006425231007565,0.0020879294289288,-0.0039962645753286,-0.1915021055139925,0.2542125603379659,-0.0468343102339384
1718277695229836205,-0.0070532223575267,0.0019322399278386,-0.0039163687059742,-0.190625678350267,0.253133267698033,-0.046147351500336
1718277695231079251,-0.007541212206011,0.001920305796693,-0.0037947792436236,-0.1899701305562051,0.2518602297117708,-0.0453723553537664
1718277695232208565,-0.0080157036963167,0.001898445030952,-0.003897643948528,-0.1896793441225787,0.2506366832472679,-0.0445827112490549
1718277695233461902,-0.0081522173610831,0.0018359602212588,-0.0038401403974514,-0.1890835821160659,0.2499020149482546,-0.0436806671928051
1718277695233483543,-0.0082289856150213,0.0016284080996168,-0.0036124922946086,-0.1879953705692011,0.2488924620477468,-0.0433327465261942
1718277695234643505,-0.0086254285793169,0.0014914003645358,-0.0032220306419797,-0.1866947824956281,0.2474069835252431,-0.0426561211093453
1718277695235842492,-0.0092235498360025,0.0015928644855544,-0.0029648524500198,-0.1860479916668376,0.2455906229379206,-0.041498134917766
1718277695237039236,-0.0098319464889186,0.0015819429697431,-0.0028112371583299,-0.185431759904383,0.2435862762357038,-0.040357626408879
1718277695238278449,-0.0102488129173169,0.0015277707472019,-0.0028602601208615,-0.1849469710753906,0.241769032421346,-0.0394825482516266
1718277695239939630,-0.0106405250220355,0.0013705819900261,-0.0030828725533946,-0.184388567843252,0.2399446970446365,-0.0388040260740982
1718277695239953427,-0.0109455717001207,0.001165755710054,-0.0033434878175363,-0.1841315778961403,0.2382287013639879,-0.0381157985787466
1718277695241141770,-0.0109166136978946,0.0010036020469053,-0.0035742879537713,-0.1843452368477018,0.2366080687822611,-0.0380900771121285
1718277695242426494,-0.0111294342317937,0.0009967853324335,-0.0041603650917516,-0.1857104055261296,0.2350929978863344,-0.0379758502842722
1718277695242435954,-0.0115274945310227,0.0009237635298078,-0.0046446526114689,-0.1867263871140555,0.2338195999611137,-0.037286428650396
1718277695243536179,-0.0118247091683748,0.000673977652961,-0.0050309398556936,-0.1873510282777397,0.2327180554055726,-0.036261150984005
1718277695244797012,-0.0121030707497131,0.0006219670134799,-0.005437725109577,-0.1883065725101645,0.2318044147738951,-0.0350770990226979
1718277695245976381,-0.0124636957502877,0.0005768368688566,-0.0061135015863794,-0.1895424221470914,0.2304538199297898,-0.0343191371479329
1718277695247215312,-0.0128399103665979,0.0006670816317551,-0.0066463654910986,-0.1909256468772771,0.2292536992911462,-0.0330649914988637
1718277695248441038,-0.0128197365726563,0.000640762428728,-0.0067485402286463,-0.1911665570139873,0.2276932016522418,-0.032503067998658
1718277695248452073,-0.0127732066353624,0.0004393399009635,-0.0067075855686989,-0.1909424368990052,0.2264181918151102,-0.0323514285815597
1718277695249654394,-0.0130192647774808,0.0003581134288425,-0.0069514076167101,-0.1911833430346911,0.2254095846924148,-0.0320322591553079
1718277695250896856,-0.0130303211546064,5.472585477061695e-06,-0.0068812697051902,-0.1903742016859755,0.2249810685625584,-0.0321252282053525
1718277695252095599,-0.0132660716517258,6.889916759732178e-05,-0.0069639205545556,-0.1908999962827195,0.2249517837304479,-0.0316987753187197
1718277695253368884,-0.0132271763904639,0.0001122792199641,-0.007392699970613,-0.1920312331686732,0.2246352448151489,-0.0317158129579354
1718277695253377080,-0.0131796559409178,4.855649729530692e-05,-0.0074954517342062,-0.192579256559725,0.2241846261253857,-0.0318269583354582
1718277695254349595,-0.0132013175807119,-5.362249214707626e-05,-0.0074690703308604,-0.1928279955379674,0.2236199373450598,-0.0321687860612233
1718277695255642705,-0.0132371475542869,-3.432446149825813e-05,-0.007668956514951,-0.1934948516467641,0.2235963011951677,-0.0315025516287805
1718277695256833232,-0.01333813301738,0.000168994112727,-0.0078554657769882,-0.1948737693034747,0.223887212959823,-0.0306111332447171
1718277695258032177,-0.0132509447096428,0.0003850128718387,-0.0079776872733273,-0.1962971378967557,0.2238813239436624,-0.0305457451620648
1718277695259299443,-0.0131632282763421,0.0006065405433842,-0.008329630148976,-0.1981129908363706,0.2238651315987821,-0.0306103298588277
1718277695260556171,-0.0130290654539563,0.0007300344548884,-0.0085747321602807,-0.1993085458416938,0.2237986922142093,-0.0305763497679538
1718277695260567999,-0.0132359975743563,0.000665917620074,-0.0089557620903426,-0.200296913025951,0.2232914700162545,-0.0307076934684873
1718277695261719270,-0.0134552057220822,0.0007498780417297,-0.0088674341760357,-0.200854609496701,0.2229267231198077,-0.0314202607798168
1718277695262911581,-0.0137025711763418,0.0009339764243105,-0.0092440645938505,-0.2026145978213919,0.2228703930989344,-0.0314974978804195
1718277695264914640,-0.0141559605099437,0.0010360861460178,-0.0096188576271665,-0.2041580795420657,0.2223470600520135,-0.0319527876955234
1718277695264920886,-0.0142886213307214,0.001254549292501,-0.0100847816863285,-0.2061693713618076,0.2219644218750955,-0.0332968079182822
1718277695265823402,-0.0144257279750182,0.0015689069279347,-0.0107451688950914,-0.2086690113228088,0.2221360538695296,-0.0337879517389434
1718277695267126416,-0.0142777068569015,0.0019020159002006,-0.0113528065337221,-0.2114813962475324,0.2227099547454467,-0.034359768870901
1718277695268372422,-0.0140291727986894,0.0021939002915775,-0.0119914425448393,-0.2141169013374781,0.2235264284570262,-0.0350940456739274
1718277695268414686,-0.0138660795838892,0.0024128825337513,-0.012539375922912,-0.2162118706102642,0.2241326744297148,-0.0362206113993669
1718277695269711321,-0.0135896866919779,0.0028919020426984,-0.0129885720609466,-0.2186944323125772,0.2247938657575589,-0.0373812890888093
1718277695270701420,-0.0130818060916607,0.0033947120790319,-0.013351671127941,-0.2211941254321067,0.226023298252382,-0.0385992259598529
1718277695271909124,-0.0126261391613232,0.0039236023038225,-0.0133991577983351,-0.2231266770283263,0.2274838912281057,-0.0398132312042204
1718277695272991700,-0.012294007434394,0.0044195481921915,-0.0134907524952998,-0.2246630778217753,0.2291466092015853,-0.0404995653732027
1718277695274248165,-0.0118306626531271,0.0046864337443507,-0.0130926819596104,-0.2245534586840557,0.2308955825546487,-0.0411347784396832
1718277695274275447,-0.0115626456032294,0.0049318625059668,-0.0130164797133013,-0.2246609412603575,0.2322317286232356,-0.041640159380329
1718277695275471574,-0.0115395592955081,0.005139749317459,-0.0126668335426127,-0.2244260564024927,0.23323563598805,-0.041853877195564
